WITHDRAWAL RATE = 100 gal/day
BOILER WATER TEMP DEG F = 68.000000
BOILER WATER FLOW RATE lbm/hr = 50.000000
CONVECTIVE COEFFICIENT BTU/HR-FT2-F = 32.500000
INITIAL DRILL RADIUS FT = 1.500000
DEPTH TO TOP OF WATER AT START FT = 160.000000
INITIAL PARABOLIC WATER DIAMETER D FT = 4.242645
INITIAL PARABOLIC WATER HEIGHT HW FT = 10.000000
INITIAL WATER TEMP TW DEG F = 68.000000
INITIAL AIR TEMP TA DEG F = -80.000000
INITIAL ICE SURFACE TEMP TS DEG F = -80.000000
AMBIENT ICE TEMP DEG F = -80.000000
EFFECTIVE LATENT HEAT BTU/LB = 446.344000

TIME IN HRS, WATER VOL MW GALLONS, ICE AREA AI FT2, AIR VOL VA FT3
TIME 	TW 	TA 	TS 	MW 	D 	HW 	HWB 	AI 	VA
0.00,	68.00,	-80.00,	-80.00,	527.51,	4.24,	10.00,	170.00,	1507.96,	1130.97
 8.0,	55.88,	-24.91,	-83.99,	709.2,	4.87,	10.18,	170.76,	1521.73,	1140.44
16.0,	53.12,	-25.55,	-85.28,	881.0,	5.38,	10.37,	171.38,	1533.67,	1149.37
24.0,	51.07,	-25.65,	-86.14,	1052.1,	5.83,	10.55,	171.92,	1544.78,	1158.23
32.0,	49.46,	-25.58,	-86.81,	1222.5,	6.23,	10.73,	172.41,	1555.25,	1167.04
40.0,	48.16,	-25.43,	-87.36,	1392.1,	6.60,	10.91,	172.86,	1565.19,	1175.78
48.0,	47.07,	-25.25,	-87.82,	1560.8,	6.93,	11.08,	173.27,	1574.68,	1184.47
56.0,	46.15,	-25.05,	-88.21,	1728.8,	7.24,	11.24,	173.65,	1583.78,	1193.10
64.0,	45.35,	-24.86,	-88.55,	1895.9,	7.54,	11.39,	174.00,	1592.55,	1201.68
72.0,	44.66,	-24.66,	-88.85,	2062.2,	7.81,	11.54,	174.34,	1601.02,	1210.20
80.0,	44.04,	-24.46,	-89.11,	2227.7,	8.06,	11.69,	174.65,	1609.22,	1218.67
88.0,	43.50,	-24.27,	-89.33,	2392.4,	8.31,	11.83,	174.95,	1617.18,	1227.09
96.0,	43.01,	-24.09,	-89.54,	2556.3,	8.54,	11.96,	175.24,	1624.92,	1235.45
104.0,	42.56,	-23.91,	-89.71,	2719.4,	8.76,	12.09,	175.51,	1632.45,	1243.77
112.0,	42.16,	-23.73,	-89.87,	2881.8,	8.97,	12.22,	175.77,	1639.80,	1252.04
120.0,	41.79,	-23.56,	-90.01,	3043.5,	9.17,	12.34,	176.02,	1646.98,	1260.27
128.0,	41.46,	-23.40,	-90.12,	3204.4,	9.37,	12.46,	176.26,	1654.01,	1268.44
136.0,	41.15,	-23.24,	-90.23,	3364.6,	9.56,	12.57,	176.49,	1660.88,	1276.58
144.0,	40.86,	-23.08,	-90.31,	3524.1,	9.74,	12.69,	176.71,	1667.61,	1284.67
152.0,	40.59,	-22.93,	-90.39,	3682.9,	9.91,	12.80,	176.93,	1674.21,	1292.72
160.0,	40.34,	-22.78,	-90.45,	3841.0,	10.08,	12.90,	177.14,	1680.69,	1300.73
168.0,	40.11,	-22.63,	-90.50,	3998.4,	10.24,	13.01,	177.34,	1687.05,	1308.70
176.0,	39.89,	-22.49,	-90.54,	4155.2,	10.40,	13.11,	177.53,	1693.30,	1316.62
184.0,	39.69,	-22.35,	-90.57,	4311.4,	10.55,	13.21,	177.72,	1699.44,	1324.51
192.0,	39.49,	-22.22,	-90.59,	4466.9,	10.70,	13.30,	177.91,	1705.49,	1332.37
200.0,	39.31,	-22.09,	-90.60,	4621.8,	10.85,	13.40,	178.09,	1711.44,	1340.18
208.0,	39.14,	-21.96,	-90.61,	4776.1,	10.99,	13.49,	178.26,	1717.30,	1347.96
216.0,	38.98,	-171.44,	-90.60,	4930.0,	11.13,	13.58,	178.44,	1723.08,	1355.71
216.0,	38.98,	-171.44,	-90.60,	4930.0,	11.13,	13.58,	178.44,	1723.08,	1355.71

TOTAL ENERGY INPUT BTU 		= 	1.842627e+07
SEASONAL ENERGY INPUT BTU 	= 	1.842627e+07
SEASONAL ENERGY INPUT GAL FUEL 	= 	131.616199
SEASONAL ENERGY RATE BTU/HR 	=	85303.615975
TOTAL ENERGY INPUT GAL FUEL 	=	131.616199
AVERAGE LB. WATER PER LB. FUEL 	=	39.081842
SEASONAL LB. WATER PER LB. FUEL 	=	39.081842
ENERGY FROM AIR TO ICE BTU 	=	-2.257262e+06
SEASONAL ENERGY LOSS, AIR/ICE BTU =	-2.257262e+06
TOTAL WATER WITHDRAWN GAL 	=	0.000000
SEASONAL WATER WITHDRAWN GAL 	=	0.000000
TOTAL WATER LOSS GAL 		=	0.000000
SEASONAL WATER LOSS GAL 		=	0.000000

			YEAR	=	1
		STANDBY OR WATER WITHDRAWAL
BOILER WATER FLOW RATE lbm/hr 	=	50.000000
BOILER WATER TEMPERATURE DEG F 	=	1745.049985
WATER WITHDRAWAL GAL/DAY 		=	60.000000
WITHDRAWAL FLOW RATE GAL/MIN 	=	14.999881
CONVECTIVE COEFF AFTER R=30 FT BTU/HR-FT2-F 	=	32.500000
START WITHDRAWAL AT HOUR 		=	216.008052

224.0,	38.87,	-168.27,	-90.55,	5021.4,	11.23,	13.59,	178.60,	1731.62,	1371.38
232.0,	38.80,	-165.07,	-90.47,	5112.3,	11.33,	13.59,	178.77,	1740.08,	1387.01
240.0,	38.72,	-161.84,	-90.36,	5203.0,	11.43,	13.60,	178.93,	1748.48,	1402.61
248.0,	38.65,	-158.57,	-90.21,	5293.4,	11.52,	13.61,	179.09,	1756.81,	1418.21
256.0,	38.59,	-155.25,	-90.04,	5383.6,	11.62,	13.61,	179.25,	1765.07,	1433.78
264.0,	38.52,	-151.88,	-89.84,	5473.6,	11.71,	13.62,	179.40,	1773.27,	1449.34
272.0,	38.46,	-148.45,	-89.61,	5563.4,	11.80,	13.63,	179.55,	1781.41,	1464.88
280.0,	38.40,	-144.95,	-89.37,	5653.1,	11.89,	13.64,	179.71,	1789.50,	1480.41
288.0,	38.34,	-141.37,	-89.11,	5742.5,	11.98,	13.65,	179.86,	1797.52,	1495.93
296.0,	38.28,	-137.71,	-88.83,	5831.9,	12.07,	13.66,	180.00,	1805.50,	1511.43
304.0,	38.22,	-133.93,	-88.53,	5921.0,	12.15,	13.68,	180.15,	1813.42,	1526.92
312.0,	38.17,	-130.03,	-88.22,	6010.1,	12.24,	13.69,	180.30,	1821.28,	1542.39
320.0,	38.12,	-125.97,	-87.89,	6099.0,	12.32,	13.70,	180.44,	1829.10,	1557.86
328.0,	38.06,	-121.72,	-87.55,	6187.8,	12.41,	13.71,	180.58,	1836.87,	1573.31
336.0,	38.01,	-117.24,	-87.20,	6276.5,	12.49,	13.73,	180.72,	1844.59,	1588.75
344.0,	37.96,	-112.44,	-86.83,	6365.1,	12.57,	13.74,	180.86,	1852.27,	1604.18
352.0,	37.92,	-107.20,	-86.46,	6453.6,	12.65,	13.75,	181.00,	1859.90,	1619.61
360.0,	37.87,	-101.30,	-86.08,	6542.0,	12.73,	13.77,	181.14,	1867.49,	1635.02
368.0,	37.83,	-94.20,	-85.69,	6630.4,	12.81,	13.78,	181.27,	1875.04,	1650.43
376.0,	37.78,	-83.39,	-85.29,	6718.7,	12.89,	13.80,	181.41,	1882.54,	1665.82
384.0,	37.73,	-74.16,	-84.89,	6806.9,	12.97,	13.81,	181.54,	1890.00,	1681.21
392.0,	37.69,	-73.69,	-84.51,	6894.8,	13.05,	13.83,	181.67,	1897.42,	1696.58
400.0,	37.64,	-73.28,	-84.14,	6982.6,	13.12,	13.84,	181.80,	1904.79,	1711.94
408.0,	37.59,	-72.88,	-83.77,	7070.1,	13.20,	13.86,	181.93,	1912.13,	1727.28
416.0,	37.55,	-72.49,	-83.42,	7157.4,	13.27,	13.87,	182.05,	1919.41,	1742.60
424.0,	37.50,	-72.10,	-83.07,	7244.7,	13.34,	13.89,	182.18,	1926.66,	1757.92
432.0,	37.46,	-71.73,	-82.74,	7331.6,	13.41,	13.90,	182.31,	1933.87,	1773.21
440.0,	37.41,	-71.37,	-82.41,	7418.2,	13.49,	13.92,	182.43,	1941.04,	1788.49
448.0,	37.37,	-71.01,	-82.09,	7504.7,	13.56,	13.93,	182.55,	1948.16,	1803.75
456.0,	37.33,	-70.67,	-81.78,	7590.9,	13.63,	13.95,	182.67,	1955.25,	1819.00
464.0,	37.29,	-70.33,	-81.47,	7676.9,	13.70,	13.97,	182.79,	1962.30,	1834.23
472.0,	37.25,	-70.00,	-81.17,	7762.7,	13.76,	13.98,	182.91,	1969.31,	1849.45
480.0,	37.21,	-69.67,	-80.88,	7848.3,	13.83,	14.00,	183.03,	1976.29,	1864.66
488.0,	37.17,	-69.35,	-80.59,	7933.7,	13.90,	14.01,	183.15,	1983.23,	1879.85
496.0,	37.13,	-69.04,	-80.31,	8018.9,	13.97,	14.03,	183.26,	1990.13,	1895.02
504.0,	37.10,	-68.74,	-80.04,	8103.8,	14.03,	14.05,	183.38,	1997.00,	1910.18
512.0,	37.06,	-68.44,	-79.77,	8188.6,	14.10,	14.06,	183.49,	2003.84,	1925.33
520.0,	37.02,	-68.14,	-79.51,	8273.1,	14.16,	14.08,	183.61,	2010.64,	1940.46
528.0,	36.99,	-67.86,	-79.25,	8357.5,	14.22,	14.09,	183.72,	2017.41,	1955.58
536.0,	36.95,	-67.58,	-79.00,	8441.7,	14.29,	14.11,	183.83,	2024.14,	1970.69
544.0,	36.92,	-67.30,	-78.75,	8525.6,	14.35,	14.13,	183.94,	2030.85,	1985.78
552.0,	36.88,	-67.03,	-78.50,	8609.4,	14.41,	14.14,	184.05,	2037.52,	2000.86
560.0,	36.85,	-66.76,	-78.26,	8692.9,	14.47,	14.16,	184.16,	2044.16,	2015.92
568.0,	36.82,	-66.50,	-78.03,	8776.3,	14.53,	14.18,	184.27,	2050.77,	2030.97
576.0,	36.79,	-66.24,	-77.80,	8859.5,	14.60,	14.19,	184.37,	2057.35,	2046.01
584.0,	36.76,	-65.99,	-77.57,	8942.5,	14.66,	14.21,	184.48,	2063.91,	2061.04
592.0,	36.72,	-65.74,	-77.35,	9025.2,	14.71,	14.22,	184.58,	2070.43,	2076.05
600.0,	36.69,	-65.50,	-77.13,	9107.8,	14.77,	14.24,	184.69,	2076.92,	2091.05
608.0,	36.66,	-65.26,	-76.92,	9190.2,	14.83,	14.26,	184.79,	2083.39,	2106.04
616.0,	36.63,	-65.02,	-76.70,	9272.5,	14.89,	14.27,	184.90,	2089.83,	2121.01
624.0,	36.61,	-64.79,	-76.50,	9354.5,	14.95,	14.29,	185.00,	2096.24,	2135.97
632.0,	36.58,	-64.56,	-76.29,	9436.5,	15.00,	14.31,	185.10,	2102.62,	2150.93
640.0,	36.55,	-64.34,	-76.09,	9518.2,	15.06,	14.32,	185.20,	2108.98,	2165.86
648.0,	36.52,	-64.12,	-75.89,	9599.6,	15.12,	14.34,	185.30,	2115.31,	2180.79
656.0,	36.49,	-63.90,	-75.70,	9680.9,	15.17,	14.35,	185.40,	2121.61,	2195.70
664.0,	36.47,	-63.69,	-75.50,	9762.0,	15.23,	14.37,	185.50,	2127.89,	2210.60
672.0,	36.44,	-63.47,	-75.32,	9843.0,	15.28,	14.39,	185.59,	2134.14,	2225.49
680.0,	36.41,	-63.27,	-75.13,	9923.7,	15.33,	14.40,	185.69,	2140.37,	2240.36
688.0,	36.39,	-63.06,	-74.94,	10004.3,	15.39,	14.42,	185.79,	2146.58,	2255.23
696.0,	36.36,	-62.86,	-74.76,	10084.7,	15.44,	14.43,	185.88,	2152.76,	2270.08
704.0,	36.34,	-62.66,	-74.59,	10164.9,	15.49,	14.45,	185.98,	2158.91,	2284.92
712.0,	36.31,	-62.47,	-74.41,	10245.0,	15.55,	14.47,	186.07,	2165.04,	2299.75
720.0,	36.29,	-62.27,	-74.24,	10324.9,	15.60,	14.48,	186.17,	2171.15,	2314.57
728.0,	36.26,	-62.08,	-74.06,	10404.6,	15.65,	14.50,	186.26,	2177.24,	2329.37
736.0,	36.24,	-61.89,	-73.90,	10484.1,	15.70,	14.51,	186.35,	2183.30,	2344.17
744.0,	36.22,	-61.71,	-73.73,	10563.4,	15.75,	14.53,	186.45,	2189.34,	2358.95
752.0,	36.19,	-61.53,	-73.57,	10642.6,	15.80,	14.54,	186.54,	2195.36,	2373.72
760.0,	36.17,	-61.35,	-73.40,	10721.7,	15.85,	14.56,	186.63,	2201.35,	2388.48
768.0,	36.15,	-61.17,	-73.24,	10800.5,	15.90,	14.58,	186.72,	2207.33,	2403.23
776.0,	36.12,	-60.99,	-73.09,	10879.2,	15.95,	14.59,	186.81,	2213.28,	2417.97
784.0,	36.10,	-60.82,	-72.93,	10957.7,	16.00,	14.61,	186.90,	2219.21,	2432.70
792.0,	36.08,	-60.65,	-72.78,	11036.1,	16.05,	14.62,	186.99,	2225.12,	2447.41
800.0,	36.06,	-60.48,	-72.62,	11114.2,	16.10,	14.64,	187.07,	2231.01,	2462.12
808.0,	36.04,	-60.31,	-72.47,	11192.3,	16.14,	14.65,	187.16,	2236.88,	2476.81
816.0,	36.02,	-60.15,	-72.32,	11270.1,	16.19,	14.67,	187.25,	2242.73,	2491.50
824.0,	36.00,	-59.98,	-72.18,	11347.8,	16.24,	14.68,	187.34,	2248.56,	2506.17
832.0,	35.98,	-59.82,	-72.03,	11425.4,	16.29,	14.70,	187.42,	2254.37,	2520.84
840.0,	35.96,	-59.67,	-71.89,	11502.9,	16.33,	14.71,	187.51,	2260.17,	2535.50
848.0,	35.94,	-59.51,	-71.75,	11580.1,	16.38,	14.73,	187.59,	2265.94,	2550.14
856.0,	35.92,	-59.35,	-71.61,	11657.2,	16.42,	14.75,	187.68,	2271.69,	2564.77
864.0,	35.90,	-59.20,	-71.47,	11734.1,	16.47,	14.76,	187.76,	2277.42,	2579.39
872.0,	35.88,	-59.05,	-71.33,	11810.8,	16.52,	14.78,	187.85,	2283.14,	2594.01
880.0,	35.86,	-58.90,	-71.20,	11887.4,	16.56,	14.79,	187.93,	2288.83,	2608.61
888.0,	35.84,	-58.75,	-71.07,	11963.8,	16.61,	14.81,	188.01,	2294.51,	2623.20
896.0,	35.82,	-58.61,	-70.93,	12040.1,	16.65,	14.82,	188.09,	2300.17,	2637.78
904.0,	35.80,	-58.46,	-70.80,	12116.2,	16.69,	14.83,	188.18,	2305.81,	2652.35
912.0,	35.79,	-58.32,	-70.67,	12192.2,	16.74,	14.85,	188.26,	2311.44,	2666.91
920.0,	35.77,	-58.18,	-70.55,	12268.0,	16.78,	14.86,	188.34,	2317.04,	2681.47
928.0,	35.75,	-58.04,	-70.42,	12343.7,	16.82,	14.88,	188.42,	2322.63,	2696.01
936.0,	35.73,	-57.90,	-70.30,	12419.2,	16.87,	14.89,	188.50,	2328.21,	2710.54
944.0,	35.72,	-57.76,	-70.17,	12494.6,	16.91,	14.91,	188.58,	2333.76,	2725.06
952.0,	35.70,	-57.63,	-70.05,	12569.8,	16.95,	14.92,	188.66,	2339.30,	2739.58
960.0,	35.68,	-57.49,	-69.93,	12644.9,	17.00,	14.94,	188.74,	2344.82,	2754.08
968.0,	35.67,	-57.36,	-69.81,	12719.8,	17.04,	14.95,	188.81,	2350.33,	2768.57
976.0,	35.65,	-57.23,	-69.69,	12794.6,	17.08,	14.97,	188.89,	2355.82,	2783.06
984.0,	35.63,	-57.10,	-69.57,	12869.2,	17.12,	14.98,	188.97,	2361.29,	2797.53
992.0,	35.62,	-56.97,	-69.46,	12943.7,	17.16,	15.00,	189.05,	2366.75,	2812.00
1000.0,	35.60,	-56.85,	-69.34,	13018.1,	17.20,	15.01,	189.12,	2372.19,	2826.45
1008.0,	35.58,	-56.72,	-69.23,	13092.2,	17.24,	15.02,	189.20,	2377.61,	2840.90
1016.0,	35.57,	-56.60,	-69.11,	13166.3,	17.28,	15.04,	189.28,	2383.02,	2855.34
1024.0,	35.55,	-56.47,	-69.00,	13240.2,	17.32,	15.05,	189.35,	2388.42,	2869.77
1032.0,	35.54,	-56.35,	-68.89,	13314.0,	17.36,	15.07,	189.43,	2393.80,	2884.19
1040.0,	35.52,	-56.23,	-68.78,	13387.6,	17.40,	15.08,	189.50,	2399.16,	2898.60
1048.0,	35.51,	-56.11,	-68.67,	13461.2,	17.44,	15.09,	189.58,	2404.52,	2913.01
1056.0,	35.49,	-55.99,	-68.57,	13534.6,	17.48,	15.11,	189.65,	2409.85,	2927.40
1064.0,	35.48,	-55.88,	-68.46,	13607.8,	17.52,	15.12,	189.72,	2415.17,	2941.78
1072.0,	35.46,	-55.76,	-68.35,	13680.8,	17.56,	15.14,	189.80,	2420.48,	2956.16
1080.0,	35.45,	-55.65,	-68.25,	13753.8,	17.60,	15.15,	189.87,	2425.77,	2970.53
1088.0,	35.44,	-55.53,	-68.14,	13826.6,	17.64,	15.16,	189.94,	2431.05,	2984.88
1096.0,	35.42,	-55.42,	-68.04,	13899.2,	17.68,	15.18,	190.02,	2436.31,	2999.23
1104.0,	35.41,	-55.31,	-67.94,	13971.7,	17.72,	15.19,	190.09,	2441.56,	3013.57
1112.0,	35.39,	-55.20,	-67.84,	14044.1,	17.75,	15.21,	190.16,	2446.79,	3027.90
1120.0,	35.38,	-55.09,	-67.74,	14116.4,	17.79,	15.22,	190.23,	2452.01,	3042.23
1128.0,	35.37,	-54.98,	-67.64,	14188.5,	17.83,	15.23,	190.30,	2457.22,	3056.54
1136.0,	35.35,	-54.87,	-67.54,	14260.4,	17.87,	15.25,	190.37,	2462.42,	3070.84
1144.0,	35.34,	-54.77,	-67.44,	14332.3,	17.90,	15.26,	190.44,	2467.60,	3085.14
1152.0,	35.33,	-54.66,	-67.35,	14404.0,	17.94,	15.27,	190.51,	2472.76,	3099.43
1160.0,	35.31,	-54.56,	-67.25,	14475.6,	17.98,	15.29,	190.58,	2477.92,	3113.71
1168.0,	35.30,	-54.45,	-67.16,	14547.0,	18.01,	15.30,	190.65,	2483.06,	3127.98
1176.0,	35.29,	-54.35,	-67.06,	14618.3,	18.05,	15.31,	190.72,	2488.19,	3142.25
1184.0,	35.27,	-54.25,	-66.97,	14689.5,	18.08,	15.33,	190.79,	2493.30,	3156.50
1192.0,	35.26,	-54.15,	-66.88,	14760.6,	18.12,	15.34,	190.86,	2498.41,	3170.75
1200.0,	35.25,	-54.05,	-66.78,	14831.5,	18.16,	15.35,	190.93,	2503.50,	3184.99
1208.0,	35.24,	-53.95,	-66.69,	14902.3,	18.19,	15.37,	191.00,	2508.57,	3199.22
1216.0,	35.23,	-53.85,	-66.60,	14972.9,	18.23,	15.38,	191.07,	2513.64,	3213.44
1224.0,	35.21,	-53.75,	-66.51,	15043.5,	18.26,	15.39,	191.13,	2518.69,	3227.66
1232.0,	35.20,	-53.65,	-66.42,	15113.9,	18.30,	15.40,	191.20,	2523.73,	3241.86
1240.0,	35.19,	-53.56,	-66.34,	15184.2,	18.33,	15.42,	191.27,	2528.76,	3256.06
1248.0,	35.18,	-53.46,	-66.25,	15254.3,	18.37,	15.43,	191.33,	2533.78,	3270.25
1256.0,	35.17,	-53.37,	-66.16,	15324.5,	18.40,	15.44,	191.40,	2538.78,	3284.44
1264.0,	35.15,	-53.28,	-66.07,	15394.4,	18.44,	15.46,	191.47,	2543.78,	3298.62
1272.0,	35.14,	-53.18,	-65.99,	15464.2,	18.47,	15.47,	191.53,	2548.76,	3312.78
1280.0,	35.13,	-53.09,	-65.90,	15533.8,	18.50,	15.48,	191.60,	2553.73,	3326.94
1288.0,	35.12,	-53.00,	-65.82,	15603.4,	18.54,	15.49,	191.66,	2558.69,	3341.10
1296.0,	35.11,	-52.91,	-65.74,	15672.8,	18.57,	15.51,	191.73,	2563.63,	3355.24
1304.0,	35.10,	-52.82,	-65.65,	15742.0,	18.60,	15.52,	191.79,	2568.57,	3369.38
1312.0,	35.09,	-52.73,	-65.57,	15811.2,	18.64,	15.53,	191.86,	2573.49,	3383.50
1320.0,	35.08,	-52.64,	-65.49,	15880.2,	18.67,	15.54,	191.92,	2578.40,	3397.62
1328.0,	35.07,	-52.55,	-65.41,	15949.2,	18.70,	15.56,	191.99,	2583.30,	3411.74
1336.0,	35.05,	-52.47,	-65.33,	16017.9,	18.74,	15.57,	192.05,	2588.19,	3425.84
1344.0,	35.04,	-52.38,	-65.25,	16086.6,	18.77,	15.58,	192.11,	2593.07,	3439.94
1352.0,	35.03,	-52.30,	-65.17,	16155.2,	18.80,	15.59,	192.18,	2597.94,	3454.03
1360.0,	35.02,	-52.21,	-65.09,	16223.6,	18.83,	15.61,	192.24,	2602.80,	3468.12
1368.0,	35.01,	-52.13,	-65.01,	16291.9,	18.87,	15.62,	192.30,	2607.64,	3482.19
1376.0,	35.00,	-52.04,	-64.93,	16360.1,	18.90,	15.63,	192.36,	2612.48,	3496.26
1384.0,	34.99,	-51.96,	-64.86,	16428.2,	18.93,	15.64,	192.43,	2617.31,	3510.32
1392.0,	34.98,	-51.88,	-64.78,	16496.1,	18.96,	15.65,	192.49,	2622.12,	3524.37
1400.0,	34.97,	-51.80,	-64.71,	16564.0,	18.99,	15.67,	192.55,	2626.93,	3538.42
1408.0,	34.96,	-51.72,	-64.63,	16631.7,	19.03,	15.68,	192.61,	2631.72,	3552.46
1416.0,	34.95,	-51.63,	-64.56,	16699.3,	19.06,	15.69,	192.67,	2636.50,	3566.49
1424.0,	34.94,	-51.55,	-64.48,	16766.8,	19.09,	15.70,	192.73,	2641.28,	3580.52
1432.0,	34.93,	-51.48,	-64.41,	16834.2,	19.12,	15.71,	192.79,	2646.04,	3594.53
1440.0,	34.92,	-51.40,	-64.33,	16901.4,	19.15,	15.73,	192.86,	2650.79,	3608.54
1448.0,	34.91,	-51.32,	-64.26,	16968.6,	19.18,	15.74,	192.92,	2655.54,	3622.55
1456.0,	34.90,	-51.24,	-64.19,	17035.6,	19.21,	15.75,	192.98,	2660.27,	3636.54
1464.0,	34.89,	-51.16,	-64.12,	17102.7,	19.24,	15.76,	193.04,	2665.00,	3650.54
1472.0,	34.89,	-51.09,	-64.05,	17169.5,	19.27,	15.77,	193.10,	2669.71,	3664.52
1480.0,	34.88,	-51.01,	-63.97,	17236.1,	19.30,	15.78,	193.16,	2674.42,	3678.49
1488.0,	34.87,	-50.94,	-63.90,	17302.7,	19.33,	15.80,	193.21,	2679.11,	3692.46
1496.0,	34.86,	-50.86,	-63.83,	17369.2,	19.36,	15.81,	193.27,	2683.80,	3706.42
1504.0,	34.85,	-50.79,	-63.77,	17435.5,	19.39,	15.82,	193.33,	2688.47,	3720.38
1512.0,	34.84,	-50.71,	-63.70,	17501.8,	19.42,	15.83,	193.39,	2693.14,	3734.32
1520.0,	34.83,	-50.64,	-63.63,	17567.9,	19.45,	15.84,	193.45,	2697.80,	3748.26
1528.0,	34.82,	-50.57,	-63.56,	17633.9,	19.48,	15.85,	193.51,	2702.44,	3762.20
1536.0,	34.81,	-50.50,	-63.49,	17699.8,	19.51,	15.86,	193.57,	2707.08,	3776.12
1544.0,	34.80,	-50.42,	-63.42,	17765.6,	19.54,	15.88,	193.62,	2711.71,	3790.04
1552.0,	34.80,	-50.35,	-63.36,	17831.3,	19.57,	15.89,	193.68,	2716.33,	3803.96
1560.0,	34.79,	-50.28,	-63.29,	17896.8,	19.60,	15.90,	193.74,	2720.94,	3817.86
1568.0,	34.78,	-50.21,	-63.23,	17962.3,	19.63,	15.91,	193.80,	2725.54,	3831.76
1576.0,	34.77,	-50.14,	-63.16,	18027.6,	19.66,	15.92,	193.85,	2730.14,	3845.65
1584.0,	34.76,	-50.07,	-63.10,	18092.9,	19.69,	15.93,	193.91,	2734.72,	3859.54
1592.0,	34.75,	-50.00,	-63.03,	18158.0,	19.71,	15.94,	193.97,	2739.30,	3873.42
1600.0,	34.75,	-49.94,	-62.97,	18223.1,	19.74,	15.95,	194.02,	2743.86,	3887.29
1608.0,	34.74,	-49.87,	-62.90,	18288.0,	19.77,	15.97,	194.08,	2748.42,	3901.16
1616.0,	34.73,	-49.80,	-62.84,	18352.8,	19.80,	15.98,	194.14,	2752.97,	3915.02
1624.0,	34.72,	-49.73,	-62.78,	18417.5,	19.83,	15.99,	194.19,	2757.51,	3928.87
1632.0,	34.71,	-49.67,	-62.71,	18482.1,	19.85,	16.00,	194.25,	2762.04,	3942.72
1640.0,	34.71,	-49.60,	-62.65,	18546.6,	19.88,	16.01,	194.30,	2766.57,	3956.56
1648.0,	34.70,	-49.54,	-62.59,	18611.0,	19.91,	16.02,	194.36,	2771.08,	3970.39
1656.0,	34.69,	-49.47,	-62.53,	18675.3,	19.94,	16.03,	194.41,	2775.59,	3984.22
1664.0,	34.68,	-49.41,	-62.47,	18739.4,	19.97,	16.04,	194.47,	2780.08,	3998.04
1672.0,	34.67,	-49.34,	-62.41,	18803.6,	19.99,	16.05,	194.52,	2784.58,	4011.86
1680.0,	34.67,	-49.28,	-62.35,	18867.6,	20.02,	16.06,	194.58,	2789.06,	4025.67
1688.0,	34.66,	-49.21,	-62.29,	18931.5,	20.05,	16.07,	194.63,	2793.53,	4039.47
1696.0,	34.65,	-49.15,	-62.23,	18995.2,	20.07,	16.08,	194.69,	2798.00,	4053.26
1704.0,	34.64,	-49.09,	-62.17,	19058.9,	20.10,	16.10,	194.74,	2802.45,	4067.05
1712.0,	34.64,	-49.03,	-62.11,	19122.4,	20.13,	16.11,	194.80,	2806.90,	4080.84
1720.0,	34.63,	-48.96,	-62.05,	19185.9,	20.15,	16.12,	194.85,	2811.35,	4094.61
1728.0,	34.62,	-48.90,	-61.99,	19249.2,	20.18,	16.13,	194.90,	2815.78,	4108.38
1736.0,	34.61,	-48.84,	-61.93,	19312.5,	20.21,	16.14,	194.96,	2820.20,	4122.15
1744.0,	34.61,	-48.78,	-61.87,	19375.6,	20.23,	16.15,	195.01,	2824.62,	4135.91
1752.0,	34.60,	-48.72,	-61.82,	19438.7,	20.26,	16.16,	195.06,	2829.03,	4149.66
1760.0,	34.59,	-48.66,	-61.76,	19501.6,	20.29,	16.17,	195.12,	2833.43,	4163.40
1768.0,	34.59,	-48.60,	-61.70,	19564.5,	20.31,	16.18,	195.17,	2837.83,	4177.14
1776.0,	34.58,	-48.54,	-61.65,	19627.2,	20.34,	16.19,	195.22,	2842.21,	4190.88
1784.0,	34.57,	-48.48,	-61.59,	19689.8,	20.37,	16.20,	195.28,	2846.59,	4204.60
1792.0,	34.56,	-48.42,	-61.54,	19752.4,	20.39,	16.21,	195.33,	2850.96,	4218.32
1800.0,	34.56,	-48.37,	-61.48,	19814.8,	20.42,	16.22,	195.38,	2855.33,	4232.04
1808.0,	34.55,	-48.31,	-61.42,	19877.2,	20.44,	16.23,	195.43,	2859.68,	4245.75
1816.0,	34.54,	-48.25,	-61.37,	19939.4,	20.47,	16.24,	195.48,	2864.03,	4259.45
1824.0,	34.54,	-48.19,	-61.32,	20001.5,	20.49,	16.25,	195.54,	2868.37,	4273.15
1832.0,	34.53,	-48.14,	-61.26,	20063.6,	20.52,	16.26,	195.59,	2872.71,	4286.84
1840.0,	34.52,	-48.08,	-61.21,	20125.5,	20.54,	16.27,	195.64,	2877.03,	4300.52
1848.0,	34.52,	-48.02,	-61.15,	20187.4,	20.57,	16.28,	195.69,	2881.35,	4314.20
1856.0,	34.51,	-47.97,	-61.10,	20249.1,	20.59,	16.29,	195.74,	2885.66,	4327.88
1864.0,	34.50,	-47.91,	-61.05,	20310.8,	20.62,	16.30,	195.79,	2889.97,	4341.54
1872.0,	34.50,	-47.86,	-60.99,	20372.3,	20.64,	16.31,	195.84,	2894.27,	4355.21
